sys.exec.out.time {s},signal
0.0,0.0
0.001,0.22016452863274624
0.002,0.4315403433168542
0.003,0.6260954653968366
0.004,0.7972386774641722
0.005,0.9403652273925798
0.006,1.05321209703528
0.007,1.135989302966891
0.008,1.1912755412180882
0.009000000000000001,1.2236894592112013
0.01,1.2393696889726284
0.011,1.2453153690054704
0.012,1.2486523998775811
0.013000000000000001,1.2558977995681633
0.014,1.2722945541788748
0.015,1.3012822972886198
0.016,1.3441556908343169
0.017,1.3999438420812105
0.018000000000000002,1.465522292217395
0.019,1.535946188721793
0.02,1.6049714522479548
0.021,1.6657122057290668
0.022,1.7113692660289743
0.023,1.7359574269988296
0.024,1.7349592812136254
0.025,1.7058404356696741
0.026000000000000002,1.6483744797877238
0.027,1.5647446413704817
0.028,1.4594108998862818
0.029,1.3387542796967318
0.03,1.2105318718145321
0.031,1.0831946946948166
0.032,0.9651339848503551
0.033,0.8639285862805385
0.034,0.785666089750959
0.035,0.7344032591402687
0.036000000000000004,0.7118177670162322
0.037,0.7170846663241184
0.038,0.7469891676780728
0.039,0.7962643095139548
0.04,0.8581202485532455
0.041,0.924913297954021
0.042,0.9888893183719841
0.043000000000000003,1.0429289440441252
0.044,1.0812220967175696
0.045,1.099806305239993
0.046,1.0969168140471148
0.047,1.0731150094029442
0.048,1.0311835007457857
0.049,0.9757991293676539
0.05,0.9130169913932787
0.051000000000000004,0.8496171200285667
0.052000000000000005,0.7923789557974897
0.053,0.747355822466349
0.054,0.7192216263270811
0.055,0.7107549074769074
0.056,0.7225118879284425
0.057,0.7527216033272395
0.058,0.7974143902625581
0.059000000000000004,0.8507720662309415
0.06,0.9056663307644982
0.061,0.9543333705668614
0.062,0.9891191860335203
0.063,1.0032230914942635
0.064,0.9913668707623641
0.065,0.9503241926448603
0.066,0.8792584131829444
0.067,0.7798354914295108
0.068,0.656100605346927
0.069,0.514130036610425
0.07,0.36149175046818394
0.07100000000000001,0.2065666920644158
0.07200000000000001,0.057796335666230325
0.073,-0.07707086296167254
0.074,-0.19166144285071118
0.075,-0.28152175281618597
0.076,-0.3444734954580346
0.077,-0.3807464524132951
0.078,-0.3928766690663589
0.079,-0.3853813301646114
0.08,-0.3642433915017364
0.081,-0.3362576101232653
0.082,-0.30830311855717185
0.083,-0.28661479656030414
0.084,-0.27612571226380134
0.085,-0.27994583310994603
0.08600000000000001,-0.2990287395634727
0.08700000000000001,-0.3320595315115722
0.088,-0.37557531582511594
0.089,-0.42430674013055886
0.09,-0.4717072387728039
0.091,-0.5106181185878073
0.092,-0.5340041516617491
0.093,-0.5356872798795849
0.094,-0.5110060655795098
0.095,-0.4573356435669843
0.096,-0.37441644736139224
0.097,-0.26445857580233784
0.098,-0.13201051695560279
0.099,0.016396082536648315
0.1,0.17279207000744304
0.101,0.3284547478186779
0.10200000000000001,0.4746645304140543
0.10300000000000001,0.6034615881646914
0.10400000000000001,0.7083297688569057
0.105,0.784742184487212
0.106,0.8305163502439473
0.107,0.8459453434105453
0.108,0.8336932945432554
0.109,0.7984664945868071
0.11,0.7464932525082169
0.111,0.6848642313834856
0.112,0.6207985085886021
0.113,0.5609077267767223
0.114,0.510530731926281
0.115,0.47320403245525955
0.116,0.45031995303446726
0.117,0.44100581844541165
0.11800000000000001,0.4422357038277326
0.11900000000000001,0.4491633643008489
0.12,0.45564315555922524
0.121,0.45488721402197096
0.122,0.44019369775149264
0.123,0.4056738179018818
0.124,0.3469054088796749
0.125,0.2614478934101926
0.126,0.14916700176622966
0.127,0.012336181716245065
0.128,-0.14449653053530498
0.129,-0.3148644549078926
0.13,-0.4909274780438626
0.131,-0.6641544185864188
0.132,-0.8260769555114932
0.133,-0.9690424497140564
0.134,-1.0868930070311498
0.135,-1.1755052447357925
0.136,-1.2331387386256196
0.137,-1.2605597231466348
0.138,-1.2609284744255278
0.139,-1.2394617883593901
0.14,-1.2029038257660725
0.14100000000000001,-1.1588571967199677
0.14200000000000002,-1.1150396784008219
0.14300000000000002,-1.0785390839453775
0.14400000000000002,-1.0551388291349941
0.145,-1.0487796788133348
0.146,-1.0612096895649759
0.147,-1.091855819622586
0.148,-1.1379288685304745
0.149,-1.1947504742758244
0.15,-1.2562690809186117
0.151,-1.3157132318058389
0.152,-1.3663170597646508
0.153,-1.402045756746428
0.154,-1.4182488054780582
0.155,-1.412175844766843
0.156,-1.3833035239632188
0.157,-1.3334402601959938
0.158,-1.2665976268374413
0.159,-1.1886400366316434
0.16,-1.1067461915147376
0.161,-1.0287343168701821
0.162,-0.9623166634713248
0.163,-0.9143558254429369
0.164,-0.8901953933640131
0.165,-0.8931303385991514
0.166,-0.9240690028626206
0.167,-0.9814199670096537
0.168,-1.0612152132984534
0.169,-1.1574580131857484
0.17,-1.2626621153711177
0.171,-1.3685302135646622
0.17200000000000001,-1.466706158428945
0.17300000000000001,-1.5495282643501875
0.17400000000000002,-1.610711043757389
0.17500000000000002,-1.6458897799173644
0.176,-1.652975829423009
0.177,-1.6322891075043469
0.178,-1.5864560352480255
0.179,-1.520084181037609
0.18,-1.4392466622233635
0.181,-1.35082795030071
0.182,-1.2617962258995852
0.183,-1.1784745378465782
0.184,-1.1058830389225223
0.185,-1.0472174994130774
0.186,-1.0035158321030486
0.187,-0.9735458192564925
0.188,-0.9539254306403923
0.189,-0.9394641981819368
0.19,-0.9236923137332369
0.191,-0.8995255780071465
0.192,-0.860000868255215
0.193,-0.7990097298329378
0.194,-0.7119577262577684
0.195,-0.596284303248272
0.196,-0.4517914397970264
0.197,-0.28074795252816154
0.198,-0.08775817034739467
0.199,0.12059333245914267
0.2,0.33628741206752394
0.201,0.5505543266002945
0.202,0.7546303909043324
0.203,0.9405146056246848
0.20400000000000001,1.1016525516857851
0.20500000000000002,1.2334819381588389
0.20600000000000002,1.3337876907586503
0.20700000000000002,1.4028330491172891
0.20800000000000002,1.4432549856462202
0.209,1.4597352301536444
0.21,1.458480035342526
0.211,1.4465604117088589
0.212,1.4311780781132533
0.213,1.4189294953634213
0.214,1.4151403797790532
0.215,1.423336031449099
0.216,1.444899351553716
0.217,1.4789498848573914
0.218,1.5224554244971231
0.219,1.57056479284375
0.22,1.617128610840285
0.221,1.6553563252097945
0.222,1.6785442955632295
0.223,1.6808026719836475
0.224,1.65770881208188
0.225,1.6068220945220892
0.226,1.5280084890687322
0.227,1.423541820492528
0.228,1.2979704973710298
0.229,1.157761430033295
0.23,1.0107546878275542
0.231,0.8654810077620383
0.232,0.7304077468038253
0.233,0.6131859482613566
0.234,0.5199711746584867
0.23500000000000001,0.4548836456170011
0.23600000000000002,0.4196597041338103
0.23700000000000002,0.4135280392787806
0.23800000000000002,0.4333222358605786
0.23900000000000002,0.4738182392849826
0.24,0.5282634639265564
0.241,0.5890456731624288
0.242,0.6484362369622143
0.243,0.699335249713076
0.244,0.7359459615619485
0.245,0.7543130414417385
0.246,0.7526726552571431
0.247,0.7315808882142644
0.248,0.6938088486637101
0.249,0.644015725589294
0.25,0.5882328865014023
0.251,0.5332106603869756
0.252,0.4856929340076769
0.253,0.4516917787102245
0.254,0.43583432478023043
0.255,0.44084701123383563
0.256,0.46722885503880296
0.257,0.5131468256036964
0.258,0.5745645954906174
0.259,0.6455930032932338
0.26,0.7190287559913655
0.261,0.7870293523466952
0.262,0.8418587433656808
0.263,0.8766311807501532
0.264,0.8859807334425158
0.265,0.8665910753878309
0.266,0.8175336697020569
0.267,0.7403810744325846
0.268,0.6390839548391369
0.269,0.5196233692981864
0.27,0.3894717532797636
0.271,0.25691462108792396
0.272,0.13029852008511256
0.273,0.017277885925734537
0.274,-0.07586653472705052
0.275,-0.14477210572024202
0.276,-0.18734945915442835
0.277,-0.20391484322967968
0.278,-0.19708794000167262
0.279,-0.17146638605291115
0.28,-0.13311006274771003
0.281,-0.08888679997446602
0.28200000000000003,-0.04574464026351832
0.28300000000000003,-0.00998291808746965
0.28400000000000003,0.013405572531792309
0.28500000000000003,0.021256120556072622
0.28600000000000003,0.0125656165450507
0.28700000000000003,-0.011395143548435266
0.28800000000000003,-0.04720175876663765
0.289,-0.08961759356244545
0.29,-0.1321228849158214
0.291,-0.1675797143590977
0.292,-0.1889675125707292
0.293,-0.19011670171446043
0.294,-0.16636811010447047
0.295,-0.11509291460285409
0.296,-0.03602138366333013
0.297,0.06865271292308106
0.298,0.1944033108235061
0.299,0.33472718664926326
0.3,0.48168948988243593
0.301,0.6266075583551568
0.302,0.7608074053966368
0.303,0.8763801701623326
0.304,0.9668658228160925
0.305,1.0277985131482308
0.306,1.0570614505197826
0.307,1.0550177839672747
0.308,1.0244057960039892
0.309,0.9700096950432477
0.31,0.8981391423594551
0.311,0.8159692429249674
0.312,0.7308062472393915
0.313,0.6493513323540855
0.314,0.577034859946566
0.315,0.5174864470526872
0.316,0.4721927247376738
0.317,0.4403761217284877
0.318,0.4191062110510777
0.319,0.4036322343699793
0.32,0.38790361734967355
0.321,0.3652267463381828
0.322,0.3289928092998603
0.323,0.27340443245558443
0.324,0.19412886248848882
0.325,0.08881255215491368
0.326,-0.04259448983237002
0.327,-0.19773764652395087
0.328,-0.37199116626612505
0.329,-0.5588144370762207
0.33,-0.750297511000042
0.331,-0.937843765759849
0.332,-1.1129241108099601
0.333,-1.267830066821906
0.334,-1.396353065686963
0.335,-1.4943244320644415
0.336,-1.559964022686979
0.337,-1.5940040950474126
0.338,-1.5995768346253916
0.339,-1.5818769521905656
0.34,-1.547632622679665
0.341,-1.5044366373745433
0.342,-1.4600031634208026
0.343,-1.4214226280000193
0.34400000000000003,-1.394487273923641
0.34500000000000003,-1.3831528685897798
0.34600000000000003,-1.389188582992714
0.34700000000000003,-1.4120485120229378
0.34800000000000003,-1.4489764989658567
0.34900000000000003,-1.4953329923991807
0.35000000000000003,-1.5451108491151742
0.35100000000000003,-1.5915884388523693
0.352,-1.6280549230311836
0.353,-1.648535490863024
0.354,-1.6484443363800811
0.355,-1.6251002491128983
0.356,-1.5780531750853934
0.357,-1.5091886629874365
0.358,-1.4225989253024816
0.359,-1.3242321792128047
0.36,-1.2213537407633508
0.361,-1.1218708915366986
0.362,-1.0335870026513636
0.363,-0.9634574660190715
0.364,-0.9169199536244375
0.365,-0.8973644025856812
0.366,-0.9057946016949692
0.367,-0.9407146551432913
0.368,-0.9982517393924213
0.369,-1.0725035869772346
0.37,-1.1560772736680835
0.371,-1.2407672901691127
0.372,-1.3183073644843406
0.373,-1.3811233872597461
0.374,-1.4230147744388262
0.375,-1.4396986797368827
0.376,-1.4291649496805416
0.377,-1.3918082758165338
0.378,-1.3303258245891207
0.379,-1.2493915785452343
0.38,-1.1551404561501892
0.381,-1.054513854689317
0.382,-0.9545317636708217
0.383,-0.8615637040170074
0.384,-0.7806707665996455
0.385,-0.715083952054
0.386,-0.6658705462595995
0.387,-0.6318217226643188
0.388,-0.6095727610385581
0.389,-0.5939443486708498
0.39,-0.5784716307905151
0.391,-0.5560691384819207
0.392,-0.519766261750593
0.393,-0.46344087286346125
0.394,-0.3824787344339081
0.395,-0.2742934474936628
0.396,-0.13865521224759175
0.397,0.022204732703254015
0.398,0.2037252762348028
0.399,0.39937051818982316
0.4,0.6011752386531575
0.401,0.8004286405891272
0.402,0.9884307544642573
0.403,1.1572487969193657
0.404,1.3004007757499392
0.405,1.4134007304022211
0.406,1.4941134965327034
0.40700000000000003,1.5428854641531973
0.40800000000000003,1.5624396436123216
0.40900000000000003,1.5575463250777455
0.41000000000000003,1.534502468194228
0.41100000000000003,1.5004715520320877
0.41200000000000003,1.4627491332327647
0.41300000000000003,1.4280264813546062
0.41400000000000003,1.4017246900802782
0.41500000000000004,1.3874646007035212
0.41600000000000004,1.3867244139852022
0.417,1.398718328205991
0.418,1.4205077422559245
0.419,1.4473336392436602
0.42,1.4731369647152937
0.421,1.4912152705349557
0.422,1.4949504280846295
0.423,1.4785351429461984
0.424,1.437626021601122
0.425,1.3698580486328753
0.426,1.2751688359111164
0.427,1.155899582456784
0.428,1.0166615173141262
0.429,0.8639795508925053
0.43,0.7057466860884497
0.431,0.5505413022825418
0.432,0.4068729054495672
0.433,0.2824290156654511
0.434,0.1833958451781394
0.435,0.11391830621618879
0.436,0.0757513724733954
0.437,0.06813622274008074
0.438,0.08791273756401566
0.439,0.12985693739031712
0.44,0.18721009061469746
0.441,0.2523476197000146
0.442,0.31752241113968394
0.443,0.37561001172442593
0.444,0.4207831640617078
0.445,0.4490501990723901
0.446,0.45860526839092275
0.447,0.4499569449986657
0.448,0.425823528703417
0.449,0.39080632774146506
0.45,0.3508740023102367
0.451,0.31270961364083294
0.452,0.2829855057728756
0.453,0.2676382359838675
0.454,0.2712157696160863
0.455,0.29636206583510427
0.456,0.3434906968858945
0.457,0.4106805851995645
0.458,0.4938051277673463
0.459,0.5868830421377369
0.46,0.6826174597222314
0.461,0.773071246314937
0.462,0.8504130641669534
0.463,0.9076616248314328
0.464,0.9393556111702219
0.465,0.9420838699234687
0.466,0.9148239983136067
0.467,0.8590560481619475
0.468,0.7786399307553675
0.46900000000000003,0.679468087900109
0.47000000000000003,0.5689268519771575
0.47100000000000003,0.4552185130942712
0.47200000000000003,0.34660962650429905
0.47300000000000003,0.2506782073159912
0.47400000000000003,0.1736324775308733
0.47500000000000003,0.11976675231059569
0.47600000000000003,0.09110657217995716
0.47700000000000004,0.08727662605701941
0.47800000000000004,0.10560318415308531
0.47900000000000004,0.14143980667379707
0.48,0.18868326067943206
0.481,0.24042800032165434
0.482,0.28969406278789506
0.483,0.3301561244670082
0.484,0.3568014436372067
0.485,0.3664514876547158
0.486,0.35809551022531894
0.487,0.3330028876095399
0.488,0.29460282425941225
0.489,0.2481429620174596
0.49,0.20016022629078856
0.491,0.1578157811906331
0.492,0.12815942628673238
0.493,0.11739583021835964
0.494,0.1302249671078718
0.495,0.16932200100235284
0.496,0.23500834616443478
0.497,0.3251470379911194
0.498,0.4352736987345446
0.499,0.5589514111972741
0.5,0.6883159692629837
0.501,0.8147593935690953
0.502,0.9296861017085322
0.503,1.02526902582022
0.504,1.0951329706512425
0.505,1.13489960214669
0.506,1.1425419559854308
0.507,1.118514936472332
0.508,1.0656501209407072
0.509,0.9888261562431513
0.51,0.8944478849266795
0.511,0.7897859321312448
0.512,0.6822420020424675
0.513,0.5786122538216183
0.514,0.48442115658693247
0.515,0.4033911607646219
0.516,0.33710006278566707
0.517,0.2848594018229076
0.518,0.24382542825375147
0.519,0.20933126015114056
0.52,0.1754070426830402
0.521,0.13543638223173005
0.522,0.0828838596137439
0.523,0.012021355249125454
0.524,-0.08141906253956249
0.525,-0.1997308270120045
0.526,-0.3429087782436128
0.527,-0.5085483449007737
0.528,-0.6919792297738698
0.529,-0.8866218731987646
0.53,-1.0845331427037876
0.531,-1.2770891354889193
0.532,-1.4557395002568352
0.533,-1.6127606069262423
0.534,-1.7419349109324447
0.535,-1.839090972870691
0.536,-1.9024521095318154
0.537,-1.9327602479050712
0.538,-1.9331634113684637
0.539,-1.90887824977773
0.54,-1.86666088523648
0.541,-1.8141379456696807
0.542,-1.7590631807434307
0.543,-1.7085721780535559
0.544,-1.6685077270638857
0.545,-1.6428813135489069
0.546,-1.6335227621408257
0.547,-1.6399514992226143
0.548,-1.6594811001673355
0.549,-1.6875458503006286
0.55,-1.7182162344682153
0.551,-1.744851712323182
0.552,-1.7608256529252522
0.553,-1.7602502134824294
0.554,-1.7386289472985756
0.555,-1.693372015220517
0.556,-1.6241223588637492
0.557,-1.5328597521223781
0.558,-1.4237714624158906
0.559,-1.3029011881921067
0.56,-1.1776097478795846
0.561,-1.055899541261446
0.562,-0.94566826980296
0.5630000000000001,-0.8539644675817191
0.5640000000000001,-0.7863173652826393
0.5650000000000001,-0.7462064866941323
0.5660000000000001,-0.7347228550529004
0.5670000000000001,-0.7504550865558807
0.5680000000000001,-0.7896117885729738
0.5690000000000001,-0.8463686978659712
0.5700000000000001,-0.913407136709946
0.5710000000000001,-0.9825917694979798
0.5720000000000001,-1.0457221272981334
0.5730000000000001,-1.0952852539349722
0.5740000000000001,-1.1251368091179932
0.5750000000000001,-1.1310450422239242
0.5760000000000001,-1.111045530492045
0.577,-1.0655731371571844
0.578,-0.997359470843034
0.579,-0.9111070805987072
0.58,-0.8129734544814696
0.581,-0.7099164666756402
0.582,-0.6089664209693817
0.583,-0.5164969461732749
0.584,-0.437567017222352
0.585,-0.37539930396984633
0.586,-0.3310465820228887
0.587,-0.3032793966464893
0.588,-0.28870636906135916
0.589,-0.28211561077533787
0.59,-0.2770039122539161
0.591,-0.2662418336076784
0.592,-0.2428093642661926
0.593,-0.2005297559685958
0.594,-0.13472916265190427
0.595,-0.042756841495213305
0.596,0.07568581325753887
0.597,0.21844053906997218
0.598,0.3810230612844432
0.599,0.5569778505267078
0.6,0.7384232508969022
0.601,0.9167348679707588
0.602,1.0833016067397354
0.603,1.2302816531097185
0.604,1.351285692818394
0.605,1.4419217586167652
0.606,1.5001495959318907
0.607,1.5264110182258397
0.608,1.5235245680109908
0.609,1.4963557709048005
0.61,1.451296121119547
0.611,1.3956025302169617
0.612,1.3366624887370562
0.613,1.2812573113870394
0.614,1.234895866107458
0.615,1.2012841250551025
0.616,1.1819824151734992
0.617,1.1762837077114927
0.618,1.181324487009408
0.619,1.1924168154542985
0.62,1.20356841004647
0.621,1.2081390029097365
0.622,1.1995677906053517
0.623,1.1720997055325975
0.624,1.1214382609838487
0.625,1.0452598292799313
0.626,0.9435377153094713
0.627,0.8186429649169291
0.628,0.6752106811081591
0.629,0.519783574073859
0.63,0.36026629677138833
0.631,0.20524267948017352
0.632,0.06322145677879981
0.633,-0.058116841674222874
0.634,-0.1525991834031822
0.635,-0.2160999693730294
0.636,-0.24688959054184906
0.637,-0.24575817658486554
0.638,-0.2159029663640325
0.639,-0.1625907122575994
0.64,-0.09262839058395417
0.641,-0.013694090739995501
0.642,0.06640652186033913
0.643,0.1404856505405161
0.644,0.20264817170309524
0.645,0.24883031534287836
0.646,0.2771502034350023
0.647,0.2880367732294946
0.648,0.2841254206956083
0.649,0.26993163395826203
0.65,0.25133570104134095
0.651,0.23493013398159968
0.652,0.22729493488382024
0.653,0.23427291823876728
0.654,0.26031730358364924
0.655,0.3079767033509345
0.656,0.3775691467650353
0.657,0.4670782224226031
0.658,0.5722826072523529
0.659,0.6871073144932593
0.66,0.8041631846705647
0.661,0.9154225977873454
0.662,1.0129659194100986
0.663,1.08972612823486
0.664,1.1401591019341377
0.665,1.1607741611422844
0.666,1.1504729935590754
0.667,1.1106636802176133
0.668,1.0451384057867192
0.669,0.9597264170487548
0.67,0.861755651147347
0.671,0.7593750505621698
0.672,0.6608030969283317
0.673,0.5735752097662388
0.674,0.5038626742891227
0.675,0.45592868442591755
0.676,0.43177360709921764
0.677,0.4310030120892429
0.678,0.45093018607326163
0.679,0.48690189642729803
0.68,0.5328143369143961
0.681,0.5817676103544206
0.682,0.6267936005960996
0.683,0.6615849784068786
0.684,0.6811530677946612
0.685,0.6823493710644328
0.686,0.6641990186248022
0.687,0.6280129529366719
0.6880000000000001,0.5772674577478006
0.6890000000000001,0.5172625674926709
0.6900000000000001,0.4545926911184662
0.6910000000000001,0.39648132327108343
0.6920000000000001,0.35004517652587186
0.6930000000000001,0.3215601310276228
0.6940000000000001,0.31580136869060027
0.6950000000000001,0.335522938467056
0.6960000000000001,0.3811284818595292
0.6970000000000001,0.4505662548767644
0.6980000000000001,0.5394597320879817
0.6990000000000001,0.6414621074830694
0.7000000000000001,0.7488011625817375
0.7010000000000001,0.8529623917212261
0.7020000000000001,0.9454447755664144
0.7030000000000001,1.0185164973855747
0.704,1.0658978968776327
0.705,1.0833060533227354
0.706,1.068808889194767
0.707,1.0229552663649457
0.708,0.9486693917591695
0.709,0.8509208207395325
0.71,0.7362031974741932
0.711,0.6118734649720652
0.712,0.48541679521238623
0.713,0.3637096108470431
0.714,0.25235309955286156
0.715,0.1551425597978508
0.716,0.07372445637932923
0.717,0.007474525740350235
0.718,-0.04639152801341101
0.719,-0.09248612893746438
0.72,-0.13672990096199944
0.721,-0.18569544270276356
0.722,-0.24588000010225392
0.723,-0.32297930326307517
0.724,-0.42123481560638243
0.725,-0.5429195356846757
0.726,-0.6880139891379479
0.727,-0.8541054712177436
0.728,-1.0365217668373683
0.729,-1.2286876221327399
0.73,-1.4226704158359489
0.731,-1.6098629171461827
